# wind speed (m/s) | Cp | Ct
0.000000000000000000e+00 0.000000000000000000e+00 1.106109647445720601e+00
2.500000000000000000e+00 1.564357767050929549e-01 1.095158066777941253e+00
3.523386535648673323e+00 3.128715534101859097e-01 1.022712198860334709e+00
4.570159606946020858e+00 4.130674880647284830e-01 9.196487010459086786e-01
5.616932678243367505e+00 4.489563239069855882e-01 8.519047005306812359e-01
6.663705749540715040e+00 4.615522686688521281e-01 8.032822863782020928e-01
7.710478820838061687e+00 4.633074665079051635e-01 7.667546860437455258e-01
8.757251892135409221e+00 4.631607703567137690e-01 7.620929940139256065e-01
9.804024963432755868e+00 4.631607703567138801e-01 7.620929940139257175e-01
1.085079803473010429e+01 4.628064174063633018e-01 7.508324100723721140e-01
1.170448773987094526e+01 4.522311128900888266e-01 6.721067417285361278e-01
1.225970155238831971e+01 3.935301193575363454e-01 5.218850413183392378e-01
1.284125247460764818e+01 3.424486958711209228e-01 4.317875768127575897e-01
1.345038983306189451e+01 2.979977987333838341e-01 3.644325790445590574e-01
1.408842221730886735e+01 2.593167651698772835e-01 3.104987436704629844e-01
1.475672029113066763e+01 2.256566490893210097e-01 2.669668572725579225e-01
1.545671973708519076e+01 1.963657199134924980e-01 2.298690902414084747e-01
1.618992434073530617e+01 1.708768437037334609e-01 1.996157790301048007e-01
1.695790922118139576e+01 1.486965022561654304e-01 1.728624532337490471e-01
1.776232421483745938e+01 1.293952375522178233e-01 1.508145741963909936e-01
1.860489741971984046e+01 1.125993365489582620e-01 1.314666620381801376e-01
1.948743890786286315e+01 9.798359530928681116e-02 1.147596795658662183e-01
2.041184461383640780e+01 8.526502237035533949e-02 1.012958359748802328e-01
2.138010040771921538e+01 7.419735943418842572e-02 8.801879583163357834e-02
2.239428636127766836e+01 6.456631328956505267e-02 7.746818579573643004e-02
2.345658121651478467e+01 5.618540664515054434e-02 6.878620842870647456e-02
2.456926706618942902e+01 4.889236753728529172e-02 5.977060692186554614e-02
3.000000000000000000e+01 0.000000000000000000e+00 0.000000000000000000e+00
